,Frame,ID,x,y,z,windx,windy
0,27965,11217673,1.2082968304664137,-0.0032189763542702,0.3356907728135245,0.3195423726361112,0.9780013939100928
1,27966,11217673,1.181361514749748,-0.0041162653263443,0.3346940736587893,0.3195423726361112,0.9780013939100928
2,27967,11217673,1.1539214754839593,-0.0051990062622794,0.3340697556405516,0.3195423726361112,0.9780013939100928
3,27968,11217673,1.1264814362181703,-0.0062817471982144,0.33380074194143255,0.3195423726361112,0.9780013939100928
4,27969,11217673,1.0927823085091553,-0.0053194766057346,0.3338699557440534,0.3195423726361112,0.9780013939100928
5,27970,11217673,1.05908318080014,-0.0043572060132548,0.33426032023103536,0.3195423726361112,0.9780013939100928
6,27971,11217673,1.0270120910531226,-0.0035761188039273,0.3349547585849997,0.3195423726361112,0.9780013939100928
7,27972,11217673,0.9942180979386266,-0.0033765014865432,0.3359361939885675,0.3195423726361112,0.9780013939100928
8,27973,11217673,0.959555920304599,-0.0020990832983674,0.3371875496243601,0.3195423726361112,0.9780013939100928
9,27974,11217673,0.9231617861011024,-0.0013654110300614,0.3386917486749987,0.3195423726361112,0.9780013939100928
10,27975,11217673,0.8867676518976058,-0.0006317387617554,0.3404317143231044,0.3195423726361112,0.9780013939100928
11,27976,11217673,0.8529468624687715,-0.0008553430910366,0.3423903697512985,0.3195423726361112,0.9780013939100928
12,27977,11217673,0.8191260730399372,-0.0010789474203177,0.34455063814220227,0.3195423726361112,0.9780013939100928
13,27978,11217673,0.785055719990017,-0.0047840128742019,0.3468954426784368,0.3195423726361112,0.9780013939100928
14,27979,11217673,0.747043482399822,-0.0053317280797071,0.3494077065426234,0.3195423726361112,0.9780013939100928
15,27980,11217673,0.7103270247709332,-0.0057184290877927,0.3520703529173749,0.3195423726361112,0.9780013939100928
16,27981,11217673,0.6736105671420444,-0.0061051300958783,0.35504622914348466,0.3195423726361112,0.9780013939100928
17,27982,11217673,0.6385812777830745,-0.0045894866444419,0.358222449185956,0.3195423726361112,0.9780013939100928
18,27983,11217673,0.6010502838701924,-0.0052937417950645,0.36153736879360077,0.3195423726361112,0.9780013939100928
19,27984,11217673,0.5628547629714398,-0.0053133598684217,0.3636779654161106,0.3195423726361112,0.9780013939100928
20,27985,11217673,0.5254525291414128,-0.0029049666942191,0.36628089392253177,0.3195423726361112,0.9780013939100928
21,27986,10866934,0.9385759661742086,0.166092571356461,0.3505200000000003,0.3195423726361112,0.9780013939100928
22,27986,11217673,0.4893065820640916,-0.0061641916254087,0.36925368793608215,0.3195423726361112,0.9780013939100928
23,27987,11217673,0.4507187494972215,-0.0087421186780739,0.37250388107997934,0.3195423726361112,0.9780013939100928
24,27987,10866934,0.9385693322049632,0.1660277072176504,0.3447737704918036,0.3195423726361112,0.9780013939100928
25,27988,10866934,0.9385626982357176,0.1659628430788399,0.3390275409836069,0.3195423726361112,0.9780013939100928
26,27988,11217673,0.422270267522917,-0.0081492269520521,0.37593900697744115,0.3195423726361112,0.9780013939100928
27,27989,11217673,0.3938217855486124,-0.0075563352260303,0.37946659925168513,0.3195423726361112,0.9780013939100928
28,27989,10866934,0.9385560642664722,0.1658979789400294,0.3332813114754102,0.3195423726361112,0.9780013939100928
29,27990,11217673,0.3454901100591943,-0.0066573192852111,0.3829941915259292,0.3195423726361112,0.9780013939100928
30,27990,10866934,0.9385494302972268,0.1658331148012188,0.3275350819672134,0.3195423726361112,0.9780013939100928
31,27991,11217673,0.2971584345697762,-0.0057583033443918,0.3864293174233909,0.3195423726361112,0.9780013939100928
32,27991,10866934,0.9385427963279812,0.1657682506624083,0.3217888524590167,0.3195423726361112,0.9780013939100928
33,27992,10866934,0.938536162358736,0.1657033865235977,0.31604262295082003,0.3195423726361112,0.9780013939100928
34,27992,11217673,0.259548916282563,-0.0039818414361183,0.3896795105672881,0.3195423726361112,0.9780013939100928
35,27993,11217673,0.2214018415814992,-0.0047553513041893,0.39140092628171824,0.3195423726361112,0.9780013939100928
36,27993,10866934,0.9385295283894904,0.1656385223847872,0.3102963934426233,0.3195423726361112,0.9780013939100928
37,27994,11217673,0.1832547668804353,-0.0055288611722602,0.3931993973101336,0.3195423726361112,0.9780013939100928
38,27994,10866934,0.938522894420245,0.1655736582459767,0.3045501639344266,0.3195423726361112,0.9780013939100928
39,27995,10866934,0.9385162604509996,0.1655087941071661,0.2988039344262298,0.3195423726361112,0.9780013939100928
40,27995,11217673,0.1451076921793714,-0.0063023710403312,0.3966807563959865,0.3195423726361112,0.9780013939100928
41,27996,10866934,0.938509626481754,0.1654439299683556,0.29305770491803307,0.3195423726361112,0.9780013939100928
42,27996,11217673,0.1050906724976331,-0.0037383131916235,0.4005011588633744,0.3195423726361112,0.9780013939100928
43,27997,11217673,0.0677920423512608,-0.006443571827969,0.404568138335515,0.3195423726361112,0.9780013939100928
44,27997,10866934,0.9385029925125088,0.1653790658295451,0.28731147540983637,0.3195423726361112,0.9780013939100928
45,27998,10866934,0.9384963585432632,0.1653142016907345,0.2815652459016396,0.3195423726361112,0.9780013939100928
46,27998,11217673,0.0304934122048884,-0.0091488304643144,0.40878922843562615,0.3195423726361112,0.9780013939100928
47,27999,10866934,0.9384897245740178,0.165249337551924,0.27581901639344286,0.3195423726361112,0.9780013939100928
48,27999,11217673,-0.0100412664042871,-0.0081674414730538,0.4130719627869255,0.3195423726361112,0.9780013939100928
49,28000,10866934,0.9384830906047724,0.1651844734131135,0.27007278688524616,0.3195423726361112,0.9780013939100928
50,28000,11217673,-0.0483411873890913,-0.0085004344645011,0.4166981858630706,0.3195423726361112,0.9780013939100928
51,28001,11217673,-0.0884747557336436,-0.0076497376375736,0.4197988916978365,0.3195423726361112,0.9780013939100928
52,28001,10866934,0.9384764566355268,0.1651196092743029,0.2643265573770432,0.3195423726361112,0.9780013939100928
53,28002,10866934,0.9384698226662814,0.1650547451354924,0.25858032786884655,0.3195423726361112,0.9780013939100928
54,28002,11217673,-0.107441414827732,-0.0079343719088998,0.42311535241176096,0.3195423726361112,0.9780013939100928
55,28003,10866934,0.938463188697036,0.1649898809966818,0.25283409836064996,0.3195423726361112,0.9780013939100928
56,28003,11217673,-0.1264080739218205,-0.0082190061802259,0.42652427950246774,0.3195423726361112,0.9780013939100928
57,28004,10866934,0.9384565547277904,0.1649250168578713,0.24708786885245337,0.3195423726361112,0.9780013939100928
58,28004,11217673,-0.1646046609274434,-0.0082347104220369,0.42990238446758045,0.3195423726361112,0.9780013939100928
59,28005,10866934,0.938449920758545,0.1648601527190608,0.2413416393442568,0.3195423726361112,0.9780013939100928
60,28005,11217673,-0.222745775456183,-0.0116614786932247,0.43312637880472266,0.3195423726361112,0.9780013939100928
61,28006,11217673,-0.2528768323527728,-0.0130864284963099,0.4369375346344323,0.3195423726361112,0.9780013939100928
62,28006,10866934,0.9384432867892996,0.1647952885802502,0.23559540983606017,0.3195423726361112,0.9780013939100928
63,28007,10866934,0.9384366528200542,0.1647304244414397,0.22984918032786358,0.3195423726361112,0.9780013939100928
64,28007,11217673,-0.2830078892493626,-0.0145113782993951,0.4414668459904844,0.3195423726361112,0.9780013939100928
65,28008,10866934,0.9384300188508088,0.1646655603026292,0.224102950819667,0.3195423726361112,0.9780013939100928
66,28008,11217673,-0.3187974132950726,-0.0153131760229194,0.44599615734653647,0.3195423726361112,0.9780013939100928
67,28009,10866934,0.9384233848815632,0.1646006961638186,0.21835672131147044,0.3195423726361112,0.9780013939100928
68,28009,11217673,-0.3566043244299777,-0.0152216667726331,0.45043300232580624,0.3195423726361112,0.9780013939100928
69,28010,11217673,-0.3951134395074194,-0.0178212368887049,0.45468491455151155,0.3195423726361112,0.9780013939100928
70,28010,10866934,0.9384167509123178,0.1645358320250081,0.21261049180327382,0.3195423726361112,0.9780013939100928
71,28011,11217673,-0.4699283699989298,-0.0211697936134333,0.45803373849730983,0.3195423726361112,0.9780013939100928
72,28011,10866934,0.9384101169430724,0.1644709678861975,0.20686426229507723,0.3195423726361112,0.9780013939100928
73,28012,10866934,0.9384034829738268,0.164406103747387,0.20111803278688062,0.3195423726361112,0.9780013939100928
74,28012,11217673,-0.4887862088095364,-0.0212554224032288,0.46061046819697604,0.3195423726361112,0.9780013939100928
75,28013,10866934,0.9383968490045816,0.1643412396085765,0.19537180327868406,0.3195423726361112,0.9780013939100928
76,28013,11217673,-0.5076440476201429,-0.0213410511930244,0.4631563757710482,0.3195423726361112,0.9780013939100928
77,28014,10866934,0.938390215035336,0.1642763754697659,0.18962557377048747,0.3195423726361112,0.9780013939100928
78,28014,11217673,-0.5645022326666653,-0.0251847636327835,0.4655481727171499,0.3195423726361112,0.9780013939100928
79,28015,11217673,-0.6122034761481265,-0.0284582614307873,0.4693916917787333,0.3195423726361112,0.9780013939100928
80,28015,10866934,0.9383835810660904,0.1642115113309554,0.18387934426229083,0.3195423726361112,0.9780013939100928
81,28016,10866934,0.9383769470968452,0.1641466471921449,0.17813311475409427,0.3195423726361112,0.9780013939100928
82,28016,11217673,-0.6599047196295877,-0.0317317592287912,0.47334308827989613,0.3195423726361112,0.9780013939100928
83,28017,10866934,0.9383703131275996,0.1640817830533343,0.17238688524589768,0.3195423726361112,0.9780013939100928
84,28017,11217673,-0.6769929870368925,-0.0337390819487275,0.477309895843856,0.3195423726361112,0.9780013939100928
85,28018,10866934,0.9383636791583544,0.1640169189145238,0.16664065573770112,0.3195423726361112,0.9780013939100928
86,28018,11217673,-0.6940812544441972,-0.0357464046686638,0.4811996480938307,0.3195423726361112,0.9780013939100928
87,28019,11217673,-0.7328999652691206,-0.0376589795585985,0.4849198786530378,0.3195423726361112,0.9780013939100928
88,28019,10866934,0.9383570451891088,0.1639520547757133,0.1608944262295045,0.3195423726361112,0.9780013939100928
89,28020,10866934,0.9383504112198632,0.1638871906369027,0.15514819672130792,0.3195423726361112,0.9780013939100928
90,28020,11217673,-0.8028582947013649,-0.0451626750007167,0.4871267428455749,0.3195423726361112,0.9780013939100928
91,28021,10866934,0.938343777250618,0.1638223264980922,0.1494019672131113,0.3195423726361112,0.9780013939100928
92,28021,11217673,-0.8390869701945027,-0.0483889217993835,0.4894260734148943,0.3195423726361112,0.9780013939100928
93,28022,11217673,-0.8750516972937665,-0.0513508079987904,0.4916945818586196,0.3195423726361112,0.9780013939100928
94,28022,10866934,0.9383371432813724,0.1637574623592817,0.14365573770491474,0.3195423726361112,0.9780013939100928
95,28023,10866934,0.938330509312127,0.1636925982204711,0.13790950819671813,0.3195423726361112,0.9780013939100928
96,28023,11217673,-0.910271896568235,-0.055023244643908,0.4938089796743744,0.3195423726361112,0.9780013939100928
97,28024,11217673,-0.9454920958427036,-0.0586956812890257,0.49737509960561116,0.3195423726361112,0.9780013939100928
98,28024,10866934,0.9383238753428816,0.1636277340816606,0.13216327868852154,0.3195423726361112,0.9780013939100928
99,28025,10866934,0.938317241373636,0.16356286994285,0.12641704918032495,0.3195423726361112,0.9780013939100928
100,28025,11217673,-0.9822853633555289,-0.064190233622587,0.501049096976427,0.3195423726361112,0.9780013939100928
101,28026,11217673,-0.9989425517340004,-0.0648774110427379,0.5047385054100401,0.3195423726361112,0.9780013939100928
102,28026,10866934,0.9383106074043908,0.1634980058040395,0.12067081967212837,0.3195423726361112,0.9780013939100928
103,28027,11217673,-1.015599740112472,-0.0655645884628888,0.5070994802305476,0.3195423726361112,0.9780013939100928
104,28027,10866934,0.9383039734351452,0.163433141665229,0.11492459016393176,0.3195423726361112,0.9780013939100928
105,28028,11217673,-1.052576963244748,-0.0713491900396281,0.509737854181402,0.3195423726361112,0.9780013939100928
106,28028,10866934,0.9382973394658998,0.1633682775264184,0.10917836065573519,0.3195423726361112,0.9780013939100928
107,28029,10866934,0.9382907054966544,0.1633034133876079,0.10343213114753859,0.3195423726361112,0.9780013939100928
108,28029,11217673,-1.088622388959151,-0.0742837608087507,0.5125303387602269,0.3195423726361112,0.9780013939100928
109,28030,11217673,-1.1235591648252914,-0.0806184444395704,0.5153536454646459,0.3195423726361112,0.9780013939100928
110,28030,10866934,0.9382840715274088,0.1632385492487974,0.097685901639342,0.3195423726361112,0.9780013939100928
111,28031,11217673,-1.1603986064981118,-0.085980291641319,0.518949046415197,0.3195423726361112,0.9780013939100928
112,28031,10866934,0.9382774375581634,0.1631736851099868,0.09193967213114543,0.3195423726361112,0.9780013939100928
113,28032,11217673,-1.1934826194697254,-0.0914016303082076,0.5234475356456549,0.3195423726361112,0.9780013939100928
114,28032,10866934,0.938270803588918,0.1631088209711763,0.08619344262294884,0.3195423726361112,0.9780013939100928
115,28033,11217673,-1.2265666324413391,-0.0968229689750962,0.5281309576296775,0.3195423726361112,0.9780013939100928
116,28033,10866934,0.9382641696196724,0.1630439568323658,0.08020912007115294,0.3195423726361112,0.9780013939100928
117,28034,11217673,-1.2607358392569414,-0.1035249492915352,0.5329068459904824,0.3195423726361112,0.9780013939100928
118,28034,10866934,0.938257535650427,0.1629790926935552,0.07407173770561463,0.3195423726361112,0.9780013939100928
119,28035,10866934,0.9382509016811816,0.1629142285547447,0.06786046439551105,0.3195423726361112,0.9780013939100928
120,28035,11217673,-1.2979768701657426,-0.108754880170849,0.5376827343512872,0.3195423726361112,0.9780013939100928
121,28036,10866934,0.938244267711936,0.1628493644159342,0.06164860464933947,0.3195423726361112,0.9780013939100928
122,28036,11217673,-1.349320680240383,-0.1169085409716527,0.5423661563353097,0.3195423726361112,0.9780013939100928
123,28037,11217673,-1.3740185217998837,-0.1215374692672987,0.5468646455657676,0.3195423726361112,0.9780013939100928
124,28037,10866934,0.9382376337426908,0.1627845002771236,0.05550359861491744,0.3195423726361112,0.9780013939100928
125,28038,11217673,-1.398716363359384,-0.1261663975629448,0.5498343573667586,0.3195423726361112,0.9780013939100928
126,28038,10866934,0.9382309997734452,0.1627196361383131,0.04948702207938273,0.3195423726361112,0.9780013939100928
127,28039,10866934,0.9382243658042,0.1626547719995026,0.04365458646919328,0.3195423726361112,0.9780013939100928
128,28039,11217673,-1.4659341494632343,-0.141571116064457,0.5528811244817347,0.3195423726361112,0.9780013939100928
129,28040,10866934,0.9382177318349544,0.162589907860692,0.03805613885012729,0.3195423726361112,0.9780013939100928
130,28040,11217673,-1.490773794465474,-0.1471756593892399,0.5558816584083197,0.3195423726361112,0.9780013939100928
131,28041,11217673,-1.5156134394677137,-0.1527802027140227,0.5587126706441372,0.3195423726361112,0.9780013939100928
132,28041,10866934,0.9382110978657088,0.1625250437218815,0.03273566192728315,0.3195423726361112,0.9780013939100928
133,28042,10866934,0.9382044638964636,0.162460179583071,0.02773127404507946,0.3195423726361112,0.9780013939100928
134,28042,11217673,-1.5647254411414857,-0.1693154535125588,0.5621154333097251,0.3195423726361112,0.9780013939100928
135,28043,11217673,-1.5947712706453794,-0.1797015224079079,0.5662209404388585,0.3195423726361112,0.9780013939100928
136,28043,10866934,0.938197829927218,0.1623953154442604,0.023075229187255047,0.3195423726361112,0.9780013939100928
137,28044,10866934,0.9381911959579726,0.1623304513054499,0.018793916976868944,0.3195423726361112,0.9780013939100928
138,28044,11217673,-1.6255809555515113,-0.1910644200053924,0.5703110365051948,0.3195423726361112,0.9780013939100928
139,28045,11217673,-1.6563906404576432,-0.2024273176028769,0.5742932551319516,0.3195423726361112,0.9780013939100928
140,28045,10866934,0.9381845619887272,0.1622655871666393,0.014907862676300405,0.3195423726361112,0.9780013939100928
141,28046,11217673,-1.6862127328184078,-0.2175598300057556,0.5774494407927868,0.3195423726361112,0.9780013939100928
142,28046,10866934,0.9381779280194816,0.1622007230278288,0.011431727187248891,0.3195423726361112,0.9780013939100928
143,28047,11217673,-1.71523248093416,-0.232954693769818,0.5799105875214753,0.3195423726361112,0.9780013939100928
144,28047,10866934,0.9381712940502362,0.1621358588890183,0.00837430705073408,0.3195423726361112,0.9780013939100928
145,28048,10866934,0.9381703919748844,0.1621359768488753,0.00573853444709587,0.3195423726361112,0.9780013939100928
146,28048,11217673,-1.7291937268777555,-0.2422336012305486,0.5824179674385548,0.3195423726361112,0.9780013939100928
147,28049,11217673,-1.7431549728213511,-0.2515125086912791,0.5848482920416491,0.3195423726361112,0.9780013939100928
148,28049,10866934,0.9381694898995327,0.1621360948087324,0.003521477195994362,0.3195423726361112,0.9780013939100928
149,28050,10866934,0.938168587824181,0.1621362127685895,0.0017143387564098886,0.3195423726361112,0.9780013939100928
150,28050,11217673,-1.799300753462776,-0.2906326651172993,0.5870782728283818,0.3195423726361112,0.9780013939100928
151,28051,11217673,-1.8271545680245236,-0.3089790795225068,0.5907137425422051,0.3195423726361112,0.9780013939100928
152,28051,10866934,0.9381676857488292,0.1621363307284466,0.0003024582266429704,0.3195423726361112,0.9780013939100928
153,28052,11217673,-1.8536731673477769,-0.3330199380623891,0.5944108565072166,0.3195423726361112,0.9780013939100928
154,28052,10866934,0.9381667836734774,0.1621364486883036,-0.0007346896556856374,0.3195423726361112,0.9780013939100928
155,28053,10866934,0.9381658815981256,0.1621365666481607,-0.0014234945136349668,0.3195423726361112,0.9780013939100928
156,28053,11217673,-1.8782547471072355,-0.3579280251485199,0.5980771483466341,0.3195423726361112,0.9780013939100928
157,28054,11217673,-1.904346252135498,-0.3793043558262946,0.6016201516836751,0.3195423726361112,0.9780013939100928
158,28054,10866934,0.938164979522774,0.1621366846080178,-0.0017962103309438378,0.3195423726361112,0.9780013939100928
159,28055,11217673,-1.9307961746090487,-0.4031338657121562,0.6049474001415576,0.3195423726361112,0.9780013939100928
160,28055,10866934,0.938164077447422,0.1621368025678749,-0.001890955452030864,0.3195423726361112,0.9780013939100928
161,28056,11217673,-1.954618561965072,-0.4257197017306923,0.6067150490443789,0.3195423726361112,0.9780013939100928
162,28056,10866934,0.9381631753720704,0.162136920527732,-0.001751712581994441,0.3195423726361112,0.9780013939100928
163,28057,11217673,-1.9814699710147896,-0.4494177948550671,0.6085289311355913,0.3195423726361112,0.9780013939100928
164,28057,10866934,0.9381622732967184,0.162137038487589,-0.0014283287866127452,0.3195423726361112,0.9780013939100928
165,28058,11217673,-1.993508642898384,-0.4617789511035839,0.6132462574577674,0.3195423726361112,0.9780013939100928
166,28058,10866934,0.9381613712213668,0.1621371564474461,-0.0009765154923437393,0.3195423726361112,0.9780013939100928
167,28059,10866934,0.938160469146015,0.1621372744073032,-0.00045784848632516976,0.3195423726361112,0.9780013939100928
168,28059,11217673,-2.0055473147819782,-0.4741401073521006,0.61782488421477,0.3195423726361112,0.9780013939100928
169,28060,11217673,-2.054470305610232,-0.523216465403486,0.6209517888562909,0.3195423726361112,0.9780013939100928
170,28060,10866934,0.9381595670706632,0.1621373923671603,6.0232083625421246e-05,0.3195423726361112,0.9780013939100928
171,28061,11217673,-2.0757780069280063,-0.5476178417184066,0.6242636262513762,0.3195423726361112,0.9780013939100928
172,28061,10866934,0.9381586649953116,0.1621375103270173,0.0005044217090107069,0.3195423726361112,0.9780013939100928
173,28062,11217673,-2.097085708245781,-0.5720192180333272,0.6276679300232438,0.3195423726361112,0.9780013939100928
